# Well Well B
# Column 1 depth MDRKB (m)
# Column 2 Tcorr oneway time (ms)

           1065           541.23
           1165           578.33
           1265           611.37
           1365           647.35
           1465           685.33
           1480           691.32
           1495           696.32
           1510           701.31
           1525           707.31
           1540            712.3
           1555            718.3
           1570            722.3
           1584           727.29
           1600           732.29
           1615           738.28
           1630           743.27
           1645           748.26
           1660           754.25
           1675           759.24
           1690           764.23
           1705           769.22
           1720           774.21
           1735            779.2
           1750            784.2
           1765            789.2
           1795           796.19
           1810           801.19
           1825           805.19
           1840           809.19
           1855           814.18
           1870           818.18
           1885           822.18
           1900           826.18
           1915           830.17
           1930           834.17
           1945           838.17
           1960           842.17
           1975           847.16
           1990           851.16
           2005           856.16
           2020           860.15
           2035           865.15
           2050           869.14
           2065           873.14
           2080           877.14
           2095           883.13
           2110           886.13
           2125           891.13
           2140           896.12
           2155           899.12
           2170           904.12
           2185           907.11
           2200           911.11
           2215           915.11
           2230            919.1
           2245            922.1
           2260           927.09
           2275            931.1
           2290            933.1
           2305           937.11
           2320           942.11
           2335           945.12
           2350           950.12
           2365           953.13
           2380           957.14
           2395           961.14
           2410           965.15
           2425           967.15
           2440           972.16
           2455           975.16
           2470           978.17
           2485           983.17
           2500           987.17
           2515           991.18
           2530           995.18
           2545           999.19
           2560          1004.19
           2575          1009.19
           2590           1012.2
           2605           1017.2
           2620           1022.2
           2635          1027.21
           2650          1032.21
           2665          1035.23
           2680          1038.25
           2695          1042.26
           2710          1044.28
           2725          1048.29
           2740          1051.31
           2755          1054.32
           2770          1057.33
           2785          1060.34
